503
541
566
549
511
447
387
347
326
321
311
285
231
192
167
188
212
254
271
279
243
209
177
198
227
267
290
270
254
216
192
195
231
263
279
285
248
228
207
207
240
262
303
303
274
240
222
238
262
286
311
307
275
254
216
224
262
288
320
303
290
248
243
240
264
303
326
327
297
263
243
264
290
337
361
351
311
283
274
276
311
338
367
358
334
306
291
303
322
358
389
375
354
322
306
311
334
367
387
386
363
326
304
317
329
367
375
363
329
285
254
270
296
333
338
335
290
256
233
225
254
279
301
274
243
209
188
184
211
248
274
270
240
209
176
192
227
262
277
262
240
188
172
167
207
235
267
254
231
193
184
184
207
243
254
259
238
206
184
192
211
240
269
264
240
207
185
198
220
248
274
274
255
207
195
204
224
248
271
270
231
207
184
192
220
256
279
274
256
224
196
192
226
258
286
285
254
216
192
211
227
254
285
279
254
224
212
199
240
261
279
270
252
211
202
206
236
283
294
283
269
224
212
226
248
288
311
311
274
240
225
231
252
285
311
307
269
236
213
225
248
285
315
311
286
242
224
216
248
269
291
286
272
230
207
216
241
262
286
270
248
224
216
225
236
271
285
272
248
207
188
192
224
254
267
274
240
224
211
248
311
375
447
482
486
479
469
466
509
530
527
498
427
351
293
248
254
270
252
254
235
204
188
192
220
256
274
272
236
224
192
199
224
254
266
279
248
213
192
206
235
263
293
286
259
236
210
220
241
283
301
296
270
236
211
220
259
286
311
296
279
248
224
240
261
303
326
318
294
260
243
248
274
315
326
318
290
272
240
254
286
333
351
347
323
295
283
288
315
353
383
379
358
326
311
306
331
360
383
379
351
322
303
317
347
375
392
383
362
311
299
291
318
352
351
351
304
275
254
258
270
299
311
311
259
216
188
207
236
262
286
279
235
204
197
199
220
254
273
269
233
199
179
190
207
243
263
248
216
184
172
177
199
248
262
254
231
192
170
184
207
238
262
254
231
199
176
195
207
242
272
254
233
206
188
192
227
254
274
270
241
211
199
196
231
252
269
274
228
207
195
192
224
270
286
286
254
216
195
199
227
260
283
274
258
224
209
204
240
262
288
286
254
224
192
207
240
264
286
283
254
224
207
209
248
272
303
287
262
224
211
216
248
276
303
296
254
231
217
225
254
303
322
306
290
257
222
230
248
294
306
296
267
224
207
216
236
285
287
283
262
216
204
207
231
266
285
269
243
216
199
195
231
262
285
274
231
192
159
184
206
262
296
328
351
351
367
397
447
507
525
529
503
453
418
386
383
363
343
306
254
199
176
169
199
248
258
262
235
192
179
184
216
262
286
279
249
220
209
216
248
283
295
285
254
207
188
204
231
269
286
280
262
224
207
220
248
279
306
311
274
254
236
248
262
296
311
294
272
243
235
240
266
307
327
328
298
262
248
254
290
317
343
347
311
286
267
272
303
334
367
351
333
306
296
311
333
354
383
383
347
318
306
311
351
375
386
393
354
323
298
299
333
368
390
370
349
306
283
272
296
323
334
317
303
258
220
216
254
279
301
290
262
236
207
209
225
248
272
267
241
198
176
177
211
240
248
258
228
199
176
204
217
258
263
256
240
203
184
184
198
241
258
233
225
184
164
184
224
254
269
263
225
196
176
184
214
254
274
283
248
224
192
199
231
260
286
270
248
217
193
190
227
261
286
270
236
216
192
204
240
267
303
285
252
211
192
207
236
271
291
274
258
211
199
207
227
269
286
271
254
224
211
227
240
286
303
288
262
224
216
227
252
290
306
285
262
227
216
227
248
286
315
304
272
243
235
231
267
299
303
301
262
231
212
220
248
269
294
279
248
216
188
207
227
261
286
288
258
227
199
211
248
274
294
283
243
192
184
192
220
254
286
293
283
294
325
379
440
507
538
535
503
471
452
429
424
407
379
320
264
209
176
176
194
233
256
243
209
184
176
192
224
258
279
279
254
217
195
216
236
258
283
272
248
224
220
204
244
262
283
279
262
227
220
224
252
288
306
294
274
248
229
240
258
290
311
296
270
243
224
240
270
294
336
326
304
283
248
243
267
303
341
334
305
279
262
270
303
328
356
351
333
296
287
294
320
354
383
375
352
320
296
307
351
386
393
383
354
318
303
311
337
367
389
375
351
301
272
279
303
318
338
326
294
254
231
248
265
303
311
291
254
220
202
216
227
262
277
261
240
209
188
192
220
254
270
258
233
198
179
184
220
254
270
270
231
199
177
199
227
256
283
263
248
207
184
204
226
254
283
261
229
209
192
192
207
252
272
280
240
209
176
204
240
262
286
277
248
220
192
201
236
274
279
283
248
207
200
207
257
283
290
294
267
236
207
216
236
270
293
283
241
224
207
216
240
279
291
286
267
224
209
216
261
290
299
288
262
240
220
231
263
294
322
303
270
240
231
240
262
283
315
306
266
235
224
224
264
294
303
306
271
231
199
216
240
274
290
275
248
224
195
220
240
266
288
283
258
220
204
195
231
258
274
269
240
207
188
206
271
331
381
414
422
434
448
479
507
541
566
545
498
427
360
303
290
286
288
262
224
188
167
184
207
243
270
256
236
193
192
207
240
274
285
274
249
224
196
198
236
266
285
279
258
220
220
224
265
290
318
299
269
227
225
225
262
299
306
303
274
248
220
240
274
298
318
315
288
254
248
258
294
322
326
318
288
259
252
258
286
322
351
343
322
298
267
277
306
351
379
375
343
311
294
306
338
379
405
387
351
326
299
303
343
375
390
383
358
328
306
311
351
379
384
363
322
286
254
263
286
311
322
311
274
231
207
230
267
277
306
299
258
220
204
194
224
252
279
259
240
201
184
184
216
252
266
266
236
206
199
195
227
264
275
256
227
211
198
188
220
248
267
254
240
206
192
207
231
254
279
264
248
207
200
209
236
264
274
269
231
201
192
199
240
269
274
264
240
207
192
202
227
279
299
280
248
224
204
206
230
264
283
279
248
220
204
211
241
283
291
283
256
231
207
217
254
286
311
279
254
227
204
225
254
285
296
299
267
243
227
231
270
303
333
315
274
248
227
227
269
293
301
288
262
240
209
231
248
280
303
294
254
224
201
217
240
270
283
270
248
216
192
199
233
269
283
254
240
199
179
198
224
252
286
296
306
315
352
400
466
517
558
549
510
471
447
435
418
398
375
318
263
212
184
184
202
236
257
252
222
199
176
193
227
254
279
267
231
207
192
207
236
267
283
272
256
230
199
216
243
270
294
275
248
235
220
227
248
279
305
290
262
235
211
229
258
303
323
311
290
248
240
243
279
317
322
311
288
252
240
254
286
319
352
338
306
283
258
262
293
334
365
367
334
311
286
306
327
358
383
375
343
315
286
303
333
383
403
387
363
331
305
315
333
375
395
375
333
294
267
279
303
335
355
326
294
252
216
230
252
286
294
285
254
224
204
211
243
269
264
267
227
192
178
184
216
262
275
254
231
198
179
176
209
249
267
248
224
198
177
190
216
258
264
256
227
195
184
176
209
257
271
254
234
194
177
194
227
261
275
283
248
209
195
207
243
269
287
267
236
203
179
199
235
264
288
279
248
222
201
211
240
269
290
274
240
209
195
207
240
283
285
270
252
216
216
225
256
290
315
296
267
235
220
227
261
290
315
303
274
248
224
240
262
301
304
294
256
240
216
240
252
283
294
286
265
216
201
204
231
267
272
262
231
204
195
216
243
265
290
259
227
199
199
216
240
248
261
240
224
192
201
240
301
383
432
459
439
434
427
454
479
511
498
466
383
311
254
231
248
252
258
248
204
192
176
192
227
262
275
274
241
211
184
213
240
269
283
267
240
204
195
198
240
274
290
285
254
225
217
224
254
290
303
287
262
227
220
234
264
299
320
305
279
241
224
225
265
304
317
315
290
254
240
252
285
334
343
333
298
258
262
269
311
338
352
343
318
285
274
285
326
354
383
370
329
306
298
311
343
375
400
387
351
303
290
323
333
358
384
370
351
307
290
292
320
351
354
349
303
271
248
255
279
299
317
288
269
217
207
207
241
279
288
274
233
192
188
184
220
243
267
270
225
195
184
184
227
254
274
248
216
188
179
184
227
248
254
243
224
193
179
188
224
261
277
254
243
193
177
198
222
254
263
264
227
195
193
196
243
267
283
273
240
207
199
216
241
275
283
274
240
211
199
211
240
269
283
262
231
206
184
216
252
279
296
283
249
224
207
240
261
291
296
279
264
227
220
222
254
296
303
304
267
243
227
240
272
303
318
303
263
225
224
240
258
297
290
288
241
224
188
212
248
267
288
262
240
216
198
211
225
262
272
279
234
207
192
195
224
252
262
254
220
184
163
193
252
303
351
379
386
390
398
439
475
524
522
495
447
390
326
303
298
294
286
254
217
184
158
176
216
248
271
258
241
207
188
206
231
267
290
279
241
211
207
207
240
279
293
274
248
199
207
220
248
277
303
288
254
231
216
227
254
293
320
292
258
240
225
236
272
315
326
304
270
243
240
252
279
306
331
326
285
262
249
270
303
318
349
336
294
270
258
293
311
351
379
352
328
311
286
303
353
379
390
383
352
323
299
322
343
375
391
367
338
306
293
317
334
358
368
354
305
272
262
267
290
311
331
315
262
240
220
230
252
279
304
275
252
224
200
211
240
269
270
270
231
201
192
184
216
254
262
252
224
196
172
184
211
254
272
258
220
200
176
198
227
254
274
258
236
204
192
201
236
269
283
261
225
211
196
214
240
274
294
270
235
201
192
195
248
279
286
270
243
209
204
214
243
274
286
269
231
196
184
207
231
267
296
272
248
227
211
224
267
290
294
290
262
225
224
233
270
296
311
296
272
248
240
240
265
299
311
296
262
227
214
240
267
283
318
299
262
224
216
220
254
272
279
279
240
204
192
199
252
294
303
279
231
211
204
211
248
272
283
248
217
193
184
201
240
303
347
375
387
395
414
451
507
541
545
526
488
422
367
354
331
318
306
269
216
188
167
192
224
242
267
243
231
199
199
201
248
274
286
270
243
207
201
211
248
286
303
290
254
224
209
226
248
291
303
283
259
240
224
236
269
294
311
304
262
233
220
240
270
318
320
320
279
248
234
254
285
312
326
328
287
264
248
269
291
331
360
354
315
279
269
288
328
360
368
367
330
311
299
311
354
393
397
383
358
315
311
320
358
386
399
383
351
317
294
311
334
367
375
358
326
285
248
252
286
325
334
311
272
235
211
220
256
286
311
272
254
211
192
201
235
272
271
264
224
195
188
192
216
252
267
254
224
198
184
199
236
266
279
267
224
192
179
188
224
254
269
252
224
188
185
196
227
262
280
265
225
195
192
207
233
279
290
279
236
207
184
199
241
266
285
272
227
198
196
204
248
274
286
263
231
209
206
211
252
279
303
285
254
217
211
236
262
283
294
290
254
240
224
243
264
290
312
293
260
240
224
233
255
294
312
294
254
233
231
233
267
303
315
293
256
225
207
222
248
280
289
274
235
201
195
209
254
290
299
279
252
226
199
216
244
274
269
254
211
176
169
188
231
267
296
318
331
352
383
422
482
529
554
527
495
454
431
414
386
389
354
299
248
192
177
190
224
254
259
240
224
195
199
204
236
267
279
270
225
195
184
204
248
274
290
272
236
209
199
224
263
289
303
294
257
225
209
240
267
303
311
301
262
235
211
240
264
311
322
303
274
252
240
248
286
311
327
296
270
252
248
262
303
343
347
328
311
274
262
274
306
351
362
358
326
303
286
315
347
379
384
375
343
318
311
318
347
384
395
383
358
311
303
318
347
367
368
360
325
286
264
274
303
323
334
306
290
248
224
241
272
299
303
279
240
220
195
207
240
258
277
254
216
192
176
192
231
261
273
252
207
188
177
198
224
258
266
252
211
192
176
192
231
254
270
248
224
184
169
192
230
262
287
262
222
204
192
195
235
263
274
270
231
199
192
206
236
270
279
272
231
206
184
220
249
266
283
270
236
201
202
207
248
270
286
256
225
207
193
238
248
277
303
270
248
227
220
233
267
303
311
279
256
230
220
228
262
306
306
294
274
240
224
240
272
311
311
294
248
207
192
211
248
286
294
283
248
211
192
204
249
279
299
279
254
227
198
207
236
256
283
259
224
192
169
180
207
241
263
270
263
280
306
370
439
495
527
518
507
475
459
448
439
431
389
343
267
204
184
192
220
248
258
262
224
192
192
207
252
279
286
267
248
216
198
224
258
267
283
261
236
209
195
216
248
286
296
285
254
216
206
227
258
283
296
274
255
233
240
252
277
299
311
303
279
241
236
243
290
318
331
311
286
240
248
258
291
318
339
331
296
285
270
294
322
351
361
357
326
296
286
307
344
375
383
368
334
312
311
322
358
383
400
390
358
322
315
315
352
383
390
355
320
288
272
288
317
338
351
318
279
242
240
248
283
294
287
267
248
211
188
208
231
269
279
255
224
192
176
195
224
262
270
254
228
199
172
188
222
248
254
252
227
188
167
188
230
265
271
258
224
192
174
206
243
266
272
262
228
188
192
201
234
269
285
258
233
201
188
206
240
277
285
270
235
204
190
211
248
270
296
274
252
206
207
224
248
285
298
283
240
207
203
240
262
285
296
285
241
211
199
216
263
294
311
299
269
236
224
240
283
303
320
315
270
230
220
228
257
301
311
286
263
230
216
248
267
296
303
286
254
214
195
217
257
285
303
279
240
201
195
207
240
277
280
257
225
192
200
216
240
261
267
248
227
209
231
286
367
431
479
486
466
447
435
453
495
498
486
415
331
263
224
207
234
254
254
242
199
184
185
206
240
263
274
262
225
194
195
206
248
286
303
279
248
216
195
224
256
293
301
279
249
220
216
225
254
286
306
294
258
233
227
240
262
293
311
294
248
240
231
248
294
311
318
303
267
248
241
254
288
326
334
317
296
248
248
264
311
343
351
343
312
279
283
304
351
367
367
354
331
303
294
317
347
379
391
367
334
328
317
318
354
383
390
367
315
283
267
286
318
351
351
334
290
254
248
254
285
303
306
286
240
216
192
206
241
272
263
254
211
192
176
195
231
258
266
243
211
184
188
201
230
254
261
252
207
179
176
177
222
256
267
243
224
184
184
195
224
261
269
248
220
192
184
195
225
262
266
252
216
185
184
199
240
264
283
266
227
206
192
220
248
279
298
270
243
204
195
211
248
262
283
261
224
199
202
220
254
280
279
262
224
207
201
212
261
294
294
277
248
224
211
236
254
296
304
283
254
227
216
233
279
304
306
294
263
233
224
241
269
301
311
279
254
216
211
231
262
290
288
279
243
212
199
211
254
286
294
265
248
209
199
211
240
272
269
252
224
193
180
199
240
261
299
296
294
312
351
407
479
513
534
534
495
462
447
439
439
411
363
315
241
185
161
177
204
248
254
252
216
192
192
216
248
283
291
272
240
209
204
216
243
283
286
277
231
211
211
216
255
286
299
286
254
209
220
224
261
287
290
279
248
213
216
235
276
306
311
311
269
240
231
258
293
319
333
294
274
248
240
274
303
330
343
331
290
270
270
279
317
351
358
338
306
274
274
303
347
370
384
367
336
303
311
331
357
383
390
375
341
294
311
306
349
375
370
354
315
283
274
286
318
343
338
312
283
233
233
231
267
286
288
267
227
209
195
200
230
257
261
263
224
192
188
195
224
252
252
231
216
179
177
206
228
254
262
248
216
179
184
207
231
262
274
252
216
167
184
188
227
258
269
249
231
192
176
204
236
254
261
258
224
192
188
224
248
272
274
248
222
188
176
194
235
286
274
257
231
207
192
210
236
272
291
266
240
206
204
225
252
279
285
254
227
196
188
207
248
279
274
262
224
216
207
231
254
286
286
285
243
211
209
240
267
304
290
290
248
228
214
235
274
317
306
294
267
233
231
248
274
292
294
280
236
210
207
224
255
287
291
285
248
224
199
224
243
283
279
264
224
195
188
216
241
277
283
256
211
184
184
211
270
304
361
379
383
395
431
479
525
558
566
538
486
432
383
360
343
343
315
267
211
179
164
192
228
264
279
256
224
192
184
214
241
264
272
254
227
199
198
217
248
273
288
270
241
207
206
224
254
279
293
283
240
216
224
243
272
296
315
294
254
231
233
248
286
311
318
306
262
252
252
270
286
317
333
317
271
242
241
283
304
338
343
320
290
262
274
294
334
360
367
343
319
290
294
318
358
383
390
360
347
311
303
338
379
399
405
384
347
306
295
315
356
367
375
352
311
274
264
269
303
334
336
315
283
254
226
240
258
274
279
256
216
192
188
201
227
258
264
240
204
184
177
193
231
267
270
261
227
193
176
199
225
254
274
240
201
184
180
195
224
262
264
254
225
201
185
207
236
258
271
254
216
193
192
207
244
267
283
254
224
199
192
214
248
279
283
262
230
203
201
211
252
285
285
258
224
203
195
222
266
285
274
264
224
202
193
224
252
279
293
270
231
204
201
231
258
285
283
254
220
199
196
216
252
277
286
262
234
207
212
243
272
305
315
286
248
224
220
254
274
306
311
294
258
240
224
252
272
306
306
293
254
236
233
248
283
303
296
285
254
227
224
240
269
286
296
261
240
211
201
227
262
290
286
269
233
216
204
227
262
279
274
254
224
188
192
224
254
290
317
320
338
363
398
447
511
549
566
554
507
466
434
411
392
383
343
285
227
184
179
195
231
254
264
260
224
192
188
199
236
279
277
258
233
199
207
220
262
303
303
270
243
216
211
233
269
288
286
274
225
211
211
240
274
303
306
294
244
230
224
241
279
296
315
294
264
231
231
254
286
315
326
306
275
243
248
262
303
338
343
330
311
272
283
288
334
363
383
351
325
317
293
323
357
385
383
368
329
311
317
326
363
383
386
383
343
318
303
320
351
379
376
363
306
275
263
285
311
335
347
303
272
240
224
252
279
299
295
264
233
207
199
216
248
283
291
262
231
192
184
207
243
259
261
233
206
172
172
199
243
270
264
240
208
192
179
193
224
264
272
240
214
192
184
207
241
270
274
248
216
184
188
211
248
272
263
252
224
199
201
211
248
272
264
262
216
198
198
222
254
279
279
254
220
196
199
216
257
279
286
269
240
211
217
240
276
294
285
269
231
220
211
231
264
286
283
254
231
192
201
225
256
290
304
279
240
208
209
236
270
306
292
285
240
216
207
243
270
299
303
288
243
220
227
248
288
311
326
285
261
231
230
243
283
301
294
264
231
207
193
225
254
267
285
264
227
209
209
236
267
285
290
262
227
209
206
233
258
272
277
240
214
184
195
229
286
334
384
402
422
422
447
486
517
541
541
507
443
367
312
293
292
294
274
231
199
167
176
196
233
258
270
252
207
184
184
217
248
269
286
262
225
204
216
231
258
293
291
274
240
216
217
240
267
299
286
286
248
224
230
254
279
311
304
286
248
222
224
248
283
315
306
274
262
231
243
262
290
315
326
303
274
249
248
274
315
336
347
326
288
272
263
311
347
367
375
354
325
294
299
334
367
383
390
357
343
306
311
329
367
384
384
358
320
303
290
317
336
363
367
328
290
270
264
286
306
331
327
303
252
230
216
240
270
304
286
269
224
195
188
207
240
256
254
236
204
176
188
209
236
270
254
231
192
172
163
192
227
254
252
227
204
184
177
204
240
254
254
233
199
184
180
211
248
274
265
254
214
195
192
216
252
283
279
258
216
192
192
220
248
267
272
241
220
192
184
222
243
279
283
258
224
195
197
227
262
285
274
254
220
185
192
230
258
294
286
262
231
207
214
240
262
286
280
254
216
192
192
216
261
286
293
258
230
206
211
231
258
286
287
269
231
224
220
243
283
315
317
286
254
216
224
254
288
311
303
283
254
224
231
252
274
299
315
274
240
214
211
230
264
286
286
254
224
199
195
225
252
274
279
259
224
204
204
226
258
279
267
248
211
184
193
220
286
334
375
390
389
411
431
480
519
558
549
514
454
402
354
343
334
318
288
248
199
169
177
211
241
266
263
243
216
188
192
217
258
271
269
256
224
209
207
240
254
277
279
262
231
207
207
227
270
294
290
259
224
209
216
254
294
317
311
286
252
217
227
258
290
318
318
286
262
236
243
258
311
322
336
306
279
241
252
290
318
343
334
306
279
270
274
294
331
352
360
336
317
288
303
328
375
390
387
354
321
306
306
333
375
388
395
367
333
311
318
343
369
375
375
347
290
267
264
283
317
336
320
286
249
222
225
252
272
293
298
254
231
199
207
224
261
283
264
252
199
190
192
211
243
267
255
231
210
184
179
199
240
262
262
231
199
167
176
206
254
262
264
236
216
199
201
231
258
270
267
233
220
176
184
207
243
272
258
252
206
192
188
211
264
279
270
252
201
184
188
224
259
286
274
254
224
201
209
243
267
294
283
254
224
195
201
227
254
286
283
259
224
211
207
225
270
296
294
270
231
206
209
231
279
289
286
259
235
195
197
227
264
311
303
269
240
224
224
252
279
306
311
279
240
231
231
257
290
315
318
299
261
228
235
254
299
318
317
288
236
216
214
238
276
299
290
262
231
201
207
236
269
293
290
263
220
201
220
243
272
286
280
248
216
188
177
216
254
285
311
303
318
322
383
443
519
558
573
538
496
495
464
475
466
431
383
315
248
206
184
207
227
262
254
240
207
198
195
225
261
290
275
248
207
195
199
220
256
269
269
256
225
216
220
252
273
303
285
259
240
207
224
248
286
311
306
273
248
227
231
262
299
317
311
294
252
248
230
270
303
328
306
286
262
240
243
283
312
343
343
311
288
262
279
299
333
367
367
347
303
279
296
318
363
386
392
361
334
318
315
357
383
398
384
358
325
303
311
351
368
386
381
347
307
294
287
312
347
360
338
306
265
233
240
259
290
295
311
263
231
216
212
240
259
279
279
248
211
185
190
199
241
258
262
225
199
179
179
207
235
256
254
227
192
167
171
216
248
262
262
238
184
167
176
207
248
267
261
240
198
176
188
224
258
279
269
241
209
184
192
216
269
279
264
236
207
188
196
222
254
274
270
243
207
195
201
230
261
285
279
252
224
193
210
248
279
288
279
258
217
195
216
224
262
290
279
252
224
204
207
241
285
298
293
258
224
204
220
240
274
294
285
271
231
211
224
243
283
294
303
267
231
224
225
258
290
311
311
280
254
224
248
271
288
311
301
267
230
206
211
236
274
294
274
261
231
216
224
248
272
294
285
248
220
198
207
233
270
283
258
227
193
179
193
231
270
315
347
351
367
379
414
464
514
541
545
509
475
425
395
379
367
336
304
248
193
167
172
220
241
270
265
238
211
207
207
241
270
291
270
252
207
192
195
236
272
311
294
267
230
211
206
248
286
301
293
254
227
207
227
252
291
311
296
264
233
220
240
279
294
311
315
290
254
243
252
270
304
323
315
290
267
240
249
286
322
358
337
322
293
274
283
320
347
367
363
336
306
283
303
322
352
383
370
358
326
306
322
351
389
386
387
358
328
311
299
336
370
383
368
334
286
283
274
315
336
352
326
294
260
228
231
254
279
306
285
248
207
192
207
243
269
285
263
231
211
192
190
220
241
254
254
216
192
190
188
225
248
255
252
227
195
171
184
209
243
256
252
224
188
176
188
224
258
274
266
231
199
184
188
231
258
279
258
235
200
195
207
234
274
283
270
243
209
195
209
227
269
270
279
241
210
195
207
227
267
274
262
244
216
195
204
248
283
297
295
254
224
199
204
243
270
296
286
262
225
207
224
254
279
303
296
261
227
220
225
262
283
311
290
267
240
216
233
262
303
318
304
274
254
224
231
256
299
311
303
264
231
224
216
254
283
290
283
252
212
199
204
243
272
299
286
248
207
195
211
228
254
262
254
225
199
184
201
254
306
368
414
421
411
439
453
503
517
538
521
471
411
358
317
303
299
286
258
216
179
163
180
201
248
269
261
236
198
197
206
240
270
285
285
243
204
195
206
248
293
307
291
254
225
207
211
248
274
299
279
256
217
209
231
262
291
322
303
266
233
217
227
258
303
315
303
272
240
231
248
270
303
315
315
285
270
264
262
304
347
351
343
312
283
272
279
315
347
375
367
334
294
290
303
333
367
383
370
347
322
294
318
354
388
407
383
351
326
304
296
331
367
370
351
325
296
279
279
294
320
318
311
274
231
225
227
248
283
290
274
243
201
192
207
240
254
272
262
224
196
169
199
224
243
262
256
216
196
176
192
227
254
277
258
227
199
192
201
207
254
269
258
225
192
192
192
220
259
269
254
224
195
184
195
231
270
279
262
236
206
193
204
243
270
274
270
252
216
204
207
240
266
270
262
240
204
195
203
240
279
299
279
248
209
214
216
252
283
296
286
252
211
198
225
254
272
293
286
252
226
207
231
264
294
293
290
267
225
224
227
271
296
311
303
272
240
230
225
261
306
303
299
274
238
216
240
254
296
325
293
258
224
201
209
252
274
285
275
248
207
199
209
233
274
288
274
236
216
188
199
233
252
256
255
240
224
254
311
379
450
509
511
498
471
464
462
485
498
486
422
347
254
216
214
224
254
262
248
216
188
172
204
227
269
279
259
231
202
195
209
231
267
279
267
233
199
216
216
252
283
303
271
254
225
204
216
254
280
301
303
270
240
227
240
272
292
311
290
256
231
224
233
276
311
322
315
274
256
236
254
294
329
339
318
296
279
262
283
311
343
351
349
322
290
288
290
334
357
386
375
351
319
303
311
347
383
400
384
351
326
315
318
354
383
398
383
331
303
283
294
322
353
354
354
294
261
240
256
283
306
318
294
252
216
200
225
248
272
290
262
233
216
192
199
240
258
270
252
224
196
177
192
220
252
269
248
224
188
177
199
224
262
270
258
211
188
176
184
227
254
267
252
216
195
176
204
231
269
277
261
240
195
198
207
240
264
285
262
240
198
188
195
234
279
280
272
230
207
199
200
243
262
279
258
240
207
195
224
248
270
287
259
240
206
204
216
248
272
296
274
236
216
204
220
269
288
317
306
270
240
231
240
269
293
307
294
271
224
233
248
269
299
321
294
272
243
234
243
275
294
303
283
254
228
207
211
248
279
274
269
240
207
207
216
261
286
286
262
240
208
184
207
224
272
274
248
199
192
192
224
286
344
398
427
443
439
459
475
513
552
548
516
462
390
333
303
311
317
294
262
220
185
177
190
224
262
283
257
231
207
204
220
258
274
294
270
252
220
195
207
248
283
285
274
240
207
209
227
270
307
326
294
254
240
230
241
270
304
311
290
262
244
231
252
283
315
322
311
275
249
235
262
306
327
322
303
277
252
240
257
301
341
358
338
311
286
285
299
338
365
383
367
336
311
304
326
363
384
402
379
351
318
315
327
363
397
414
383
351
320
307
323
351
383
383
354
315
270
254
283
311
328
320
304
262
231
216
231
262
279
285
269
231
195
184
206
248
270
270
258
222
192
184
204
243
270
274
248
216
188
192
207
243
267
279
265
216
184
172
199
217
252
270
248
225
192
172
204
227
256
265
252
220
199
196
201
254
279
283
261
229
198
196
211
248
274
283
254
240
207
195
224
258
286
283
262
227
204
184
201
242
273
270
261
241
207
203
224
269
291
291
275
254
224
216
231
270
290
307
283
261
231
224
228
270
294
298
279
244
217
209
231
263
299
311
293
269
236
229
231
258
294
311
283
248
207
211
224
256
283
287
270
240
207
211
224
263
286
288
262
229
199
188
206
235
256
254
240
199
184
206
258
323
383
439
454
450
447
439
479
509
522
524
471
383
311
264
240
255
267
267
240
195
176
167
192
231
269
274
256
224
198
190
225
248
270
274
254
224
199
196
216
261
279
290
279
231
217
220
243
269
290
303
272
248
230
216
241
279
312
315
299
261
224
240
252
290
311
322
306
272
243
243
254
303
333
334
306
271
254
254
269
322
343
354
336
298
279
285
304
337
363
379
358
317
303
303
322
358
389
397
367
341
326
318
322
363
386
384
368
326
294
303
315
338
358
351
327
294
254
236
258
279
304
317
286
256
231
216
231
261
293
285
248
220
199
184
206
238
274
267
240
207
184
169
204
230
252
262
240
209
180
184
196
225
258
254
235
204
192
188
192
225
261
264
240
207
188
178
201
231
267
262
254
225
193
192
216
240
267
267
254
228
198
192
216
254
283
280
262
224
192
192
211
258
283
279
254
229
192
192
216
249
277
288
262
241
207
204
228
270
286
290
270
243
224
216
243
269
315
294
266
240
216
216
236
277
304
311
285
254
236
220
252
274
307
303
277
231
207
199
230
256
288
277
263
225
204
192
220
256
286
288
270
231
207
192
216
254
286
283
248
207
172
169
192
231
258
286
294
286
317
351
384
450
509
510
495
461
439
414
420
413
383
352
283
231
192
164
184
211
248
254
231
209
184
184
207
254
274
279
254
225
199
192
209
248
274
275
262
240
209
195
224
254
283
294
270
236
216
216
236
270
283
294
283
240
227
224
241
274
311
311
288
256
220
220
243
286
315
333
303
274
248
256
270
315
343
351
320
283
254
254
275
315
351
351
334
294
279
277
303
351
375
383
357
333
303
303
319
351
393
370
355
326
303
304
318
357
379
383
353
306
293
274
293
326
334
334
299
265
243
226
243
285
301
295
262
224
179
192
211
254
270
277
235
207
188
195
216
258
274
270
248
207
188
178
198
231
254
252
241
204
177
192
204
248
262
270
236
199
180
184
198
240
254
262
240
211
179
198
199
227
263
274
242
224
195
192
216
254
275
279
249
216
204
193
227
252
283
283
261
236
209
211
222
258
283
283
258
240
193
193
231
256
269
286
270
243
216
216
228
270
288
294
262
231
204
206
230
274
298
311
269
252
231
224
241
283
318
307
286
252
233
230
248
279
303
306
279
241
207
207
222
267
283
283
254
224
193
195
224
252
285
280
255
222
198
196
214
243
263
258
231
199
195
216
265
351
407
455
466
459
443
455
486
534
528
517
462
398
320
270
254
252
270
248
220
192
169
177
216
248
272
286
249
204
195
188
204
248
279
279
262
220
200
216
227
270
294
290
267
231
209
204
241
274
299
293
271
227
216
211
240
279
305
303
289
252
233
231
259
285
318
311
294
262
243
240
274
315
320
343
317
272
254
256
279
311
352
354
334
299
279
285
303
338
367
370
343
318
306
294
325
360
386
398
367
343
303
311
338
370
386
386
355
317
294
294
315
354
375
360
318
279
243
248
279
295
322
311
266
240
220
214
235
269
267
285
248
216
188
192
211
254
264
279
240
199
184
172
207
231
264
272
240
204
184
176
209
243
267
267
240
199
176
176
199
248
270
254
243
212
185
176
216
248
267
272
248
216
199
204
224
259
274
285
254
209
195
195
220
259
283
283
252
224
199
199
227
261
279
269
252
212
198
209
243
279
279
290
256
207
188
192
227
272
301
306
283
227
216
211
243
270
294
296
269
240
224
231
258
285
311
311
288
254
224
231
258
286
311
306
269
252
216
224
248
275
303
293
264
231
216
203
231
267
294
290
261
224
193
201
231
267
290
285
255
228
198
207
229
262
279
272
225
198
195
195
244
322
379
432
439
447
454
471
507
541
570
541
489
432
367
315
296
290
286
269
226
196
171
185
207
236
254
261
240
199
192
188
206
252
279
271
249
209
192
200
235
255
286
286
258
227
207
216
252
274
288
294
269
248
227
220
248
279
306
296
279
243
216
216
252
293
311
315
290
254
248
248
262
303
322
320
294
254
248
252
283
322
334
343
318
294
272
274
311
347
375
379
354
315
303
306
327
367
390
379
357
325
311
311
336
375
392
381
351
325
303
291
322
351
367
368
328
290
270
262
280
318
318
319
290
248
207
201
248
269
285
294
256
231
201
192
227
254
279
262
233
201
176
184
220
252
272
262
224
188
176
179
207
248
274
274
248
211
207
200
231
252
262
261
240
209
174
188
206
243
270
269
248
211
192
195
230
262
274
274
248
224
192
206
231
254
279
270
243
216
204
192
227
254
291
279
240
224
202
211
233
270
290
287
269
231
207
220
243
272
288
283
254
216
197
206
248
285
290
288
267
231
209
206
241
279
293
303
269
248
211
224
263
290
315
312
274
248
227
236
254
296
318
315
279
248
231
227
258
279
286
287
267
233
216
222
248
270
283
280
248
211
193
220
240
272
293
279
252
224
199
192
224
252
270
259
233
216
235
262
353
422
471
507
491
498
482
496
507
532
519
482
402
322
254
240
240
254
262
262
236
199
179
192
231
259
270
277
248
211
195
199
225
252
264
262
240
227
204
199
227
254
283
270
248
211
204
209
231
286
298
296
256
234
224
230
258
296
318
311
283
248
231
231
262
286
311
311
283
254
240
254
279
320
351
326
303
274
267
270
306
331
351
343
331
298
274
290
311
343
370
360
347
317
299
304
333
375
392
395
357
334
303
315
360
383
402
383
351
315
279
294
318
351
360
351
303
269
254
254
279
303
311
311
272
227
211
204
230
256
272
270
240
207
176
184
216
252
274
267
224
204
179
192
211
236
262
256
224
179
164
163
199
241
254
254
240
199
184
184
211
240
270
258
240
204
176
194
224
248
273
254
227
199
185
198
226
252
279
262
252
207
188
188
220
252
272
280
254
211
193
207
227
263
277
274
248
207
192
216
241
267
274
280
254
231
199
209
248
272
292
286
248
220
195
193
225
269
303
279
264
220
212
224
254
279
297
296
261
231
209
225
254
283
311
311
285
254
231
240
279
304
315
306
286
241
227
225
259
279
294
283
252
227
206
216
252
286
294
286
258
231
201
211
231
274
294
288
255
224
211
211
248
264
279
262
233
207
198
227
283
343
407
434
454
448
439
456
495
518
529
516
450
375
315
279
266
264
262
254
214
192
167
184
216
254
279
269
248
224
198
207
240
270
279
286
252
227
207
211
256
280
304
286
271
234
211
225
252
298
306
304
254
240
224
234
258
290
318
311
269
243
217
224
262
299
325
303
288
254
240
248
271
318
347
334
311
275
267
279
294
334
352
351
315
279
271
274
315
351
379
383
354
317
294
323
351
383
398
383
360
320
315
315
351
383
395
392
356
328
312
303
331
358
367
358
331
294
267
270
296
311
331
311
274
243
224
220
244
274
286
270
248
222
199
207
226
262
273
270
227
198
184
200
224
252
270
262
240
206
188
185
220
248
254
254
227
188
176
179
216
252
263
254
227
199
184
195
224
269
279
262
243
207
188
199
220
252
267
254
228
207
192
196
236
254
286
279
248
216
199
207
231
279
304
285
248
209
198
204
243
277
288
290
256
224
190
211
233
264
283
280
256
224
211
224
248
270
279
272
256
227
211
211
243
274
283
286
262
216
207
224
252
293
303
294
248
233
224
231
256
293
311
311
279
248
225
240
262
303
325
303
279
230
216
225
263
288
294
286
255
224
207
201
236
267
283
274
252
207
195
196
240
264
286
267
243
216
204
211
231
270
286
267
248
207
204
231
290
355
418
450
459
447
450
479
503
541
540
517
439
375
306
270
259
279
267
248
220
192
172
192
212
254
261
259
224
199
188
209
231
259
285
267
248
204
188
206
231
270
280
285
248
220
220
220
248
285
294
286
258
231
216
233
259
293
315
293
274
243
211
229
260
286
303
294
266
235
231
248
269
303
343
320
299
269
258
254
294
336
357
334
311
285
274
279
318
354
363
367
343
296
288
311
347
370
394
383
354
311
294
311
338
370
386
383
357
315
299
311
336
360
367
354
318
274
254
262
296
315
318
317
283
243
204
209
240
270
274
270
235
200
188
195
224
262
274
270
227
200
195
192
220
254
258
256
224
192
172
177
207
254
269
258
231
192
167
192
217
252
254
252
222
192
178
192
227
256
262
264
225
193
177
179
230
254
269
269
241
204
192
206
248
270
291
270
231
193
176
199
236
269
274
283
248
206
179
209
241
269
288
280
248
216
199
206
243
271
286
274
254
217
206
213
243
279
294
279
248
216
204
216
248
270
303
285
248
211
192
216
240
279
294
290
248
217
207
224
262
287
317
311
274
231
220
227
254
303
317
294
280
248
227
236
263
293
318
311
279
240
224
224
263
286
299
293
270
231
207
216
243
286
311
290
252
216
195
220
248
286
283
270
243
204
192
195
231
262
270
269
252
226
231
286
358
443
498
511
503
485
466
495
517
529
524
479
405
318
258
231
241
267
262
254
227
195
179
192
220
260
283
262
233
211
188
199
238
262
270
269
248
224
207
207
240
286
301
274
243
224
204
220
248
286
306
301
270
236
211
233
274
311
315
312
272
233
236
241
283
306
326
318
277
248
240
254
285
326
343
326
290
270
258
272
304
331
360
347
318
288
288
303
318
360
375
376
339
318
294
311
338
379
392
383
349
327
306
311
343
390
397
386
351
306
303
311
347
367
370
352
320
274
267
258
293
333
322
311
269
227
207
216
254
283
288
267
231
206
180
195
227
261
267
258
225
192
179
192
225
252
256
252
220
192
172
195
226
258
270
270
226
193
184
207
231
256
274
265
230
207
184
207
224
259
267
254
227
176
176
192
236
267
279
267
240
201
199
201
225
264
274
256
240
207
193
199
241
273
290
274
240
220
192
211
248
283
301
283
255
216
204
207
243
274
288
270
240
214
204
220
248
277
289
270
236
207
192
207
248
274
285
277
234
206
198
210
243
279
296
290
254
225
210
233
256
283
315
294
259
240
224
231
258
286
303
285
267
242
224
231
279
311
318
311
279
240
228
231
264
288
299
285
254
220
214
211
243
283
290
279
248
211
195
204
240
270
279
272
248
207
206
207
240
267
274
274
240
214
220
254
328
390
456
482
479
482
482
498
538
556
561
510
431
363
293
274
260
270
280
254
220
192
184
188
233
258
289
269
254
216
192
207
240
267
280
269
240
200
192
212
248
279
303
286
258
238
199
230
263
303
307
294
261
227
211
233
272
291
311
297
265
240
224
248
272
303
317
318
279
254
249
263
279
317
343
326
295
269
243
270
301
326
351
347
311
287
275
296
331
358
386
370
343
311
290
326
354
383
398
381
354
330
303
322
354
384
390
395
367
322
303
311
336
367
375
360
319
293
270
279
301
326
320
315
274
236
216
216
252
277
279
275
233
199
184
192
236
262
267
267
224
192
177
192
207
248
254
254
212
192
176
184
220
258
271
256
224
188
184
192
220
243
262
254
224
188
179
192
224
254
279
256
224
200
184
207
236
262
279
270
225
195
184
184
229
269
279
264
240
188
184
201
236
279
293
270
241
207
198
207
243
269
279
269
233
216
206
214
240
272
289
286
252
216
196
206
241
279
286
283
240
204
192
211
233
270
303
274
254
207
207
227
254
288
296
274
254
216
216
224
262
290
318
294
274
240
233
236
277
306
331
296
269
243
227
227
263
294
311
286
262
220
204
220
254
283
286
267
243
204
196
216
236
279
288
279
261
224
204
207
242
274
285
254
224
188
176
195
254
311
356
386
395
407
422
456
486
525
534
507
464
411
367
334
318
311
303
259
216
184
166
176
209
248
264
256
240
204
196
211
243
259
279
270
252
229
216
225
252
285
290
274
254
216
211
231
254
285
306
290
254
220
207
236
256
299
318
298
262
240
227
240
286
306
333
320
274
248
236
262
283
327
338
325
290
256
248
258
294
334
354
343
318
286
271
294
327
367
375
367
330
287
279
303
347
379
407
390
367
334
331
338
375
398
407
390
349
318
303
320
349
383
384
367
338
296
285
293
315
333
351
320
274
236
220
240
267
296
303
270
248
216
195
207
236
279
279
270
248
196
176
195
224
256
262
256
227
206
176
195
224
262
279
265
231
192
184
192
225
249
258
254
211
188
179
192
227
258
285
267
248
211
195
204
231
258
279
262
234
195
184
201
236
272
279
262
241
207
198
207
243
262
286
272
252
211
207
216
241
271
287
270
243
216
209
231
254
291
288
285
240
206
201
220
248
283
299
288
254
216
207
216
248
279
294
290
264
220
198
211
254
285
294
270
236
217
216
227
254
288
296
285
252
234
224
231
258
303
303
294
269
231
227
243
279
306
331
306
288
252
224
248
267
303
311
288
252
225
204
210
248
274
286
279
243
213
201
220
241
274
286
272
248
211
199
207
224
260
275
272
243
220
201
231
276
347
383
416
422
431
454
479
522
566
558
529
471
402
349
306
303
304
290
256
220
177
169
192
224
252
279
254
224
206
195
211
233
267
291
273
252
207
211
224
256
270
288
270
243
224
207
220
248
288
303
272
254
230
209
227
267
294
318
299
270
252
224
248
283
317
343
327
279
243
241
257
290
318
328
306
275
248
249
263
301
326
354
334
317
276
270
286
320
358
367
358
326
291
279
315
347
375
392
389
340
326
306
334
357
389
395
379
343
315
288
304
351
375
385
356
322
303
264
286
311
327
334
311
273
227
224
236
259
290
290
279
240
192
174
179
220
256
280
262
224
192
177
188
225
256
274
258
224
192
184
184
220
248
261
248
222
195
184
192
224
252
262
248
216
192
169
188
211
254
269
262
241
201
184
177
220
254
270
262
240
192
177
199
224
259
270
262
240
204
188
207
236
267
286
270
231
207
188
199
243
271
279
263
240
199
190
211
248
286
303
274
248
208
204
206
233
264
275
262
227
199
193
203
243
269
283
279
240
204
195
211
254
270
283
274
231
216
207
220
254
296
287
285
255
231
216
240
271
286
315
288
264
224
217
240
263
303
294
286
258
236
231
252
270
299
303
283
236
216
184
198
248
262
279
256
236
196
177
207
243
285
279
270
233
204
188
206
231
254
267
248
224
201
206
244
326
383
434
461
471
479
471
495
509
527
545
503
416
334
285
257
262
270
274
243
224
188
176
177
224
256
270
262
220
211
188
198
236
262
274
261
233
206
184
192
231
267
274
252
231
204
198
220
252
285
286
283
248
224
211
231
256
307
320
303
258
240
209
233
272
311
318
299
270
248
235
248
283
304
331
317
286
270
248
270
299
343
334
322
290
272
258
286
318
354
375
367
333
306
294
322
349
383
390
383
354
320
297
317
358
385
386
375
347
311
301
303
343
370
367
349
311
274
269
267
301
318
334
301
271
231
222
225
262
283
294
272
248
211
192
195
220
254
262
254
216
184
184
195
227
256
272
254
227
199
188
188
214
254
263
261
227
193
184
192
224
254
267
264
224
199
180
201
236
267
279
254
227
188
184
204
224
262
279
255
224
193
192
209
243
279
293
270
231
199
204
207
243
274
286
270
240
207
195
209
241
271
290
274
248
220
207
224
248
270
280
272
240
207
200
207
254
290
303
283
243
212
212
224
254
286
296
288
248
211
206
224
256
290
306
296
262
240
233
240
273
297
315
303
256
227
211
227
265
299
315
294
262
241
231
231
254
303
306
290
248
211
207
220
256
293
294
285
254
224
207
216
254
270
290
262
238
199
192
207
240
270
285
267
231
192
184
211
272
330
398
407
421
427
439
462
509
554
572
538
482
413
357
326
298
296
286
262
220
184
176
188
224
252
270
266
231
188
184
193
248
258
267
261
227
206
199
209
241
272
294
279
252
208
204
217
263
290
303
294
256
224
207
233
255
303
318
311
270
243
233
235
272
315
318
315
270
240
231
248
279
311
320
303
274
257
252
267
299
315
347
326
299
274
267
279
319
351
367
347
331
311
299
315
347
367
402
386
363
334
326
331
375
386
402
390
358
320
303
317
347
367
384
367
322
286
279
279
318
338
351
315
286
254
226
248
270
286
301
279
254
211
197
204
230
259
283
257
224
199
174
184
220
248
258
248
209
192
184
193
227
254
265
248
224
188
172
193
224
262
270
263
212
193
179
195
240
258
269
254
233
207
188
199
231
254
279
258
227
206
184
207
231
270
270
258
230
207
206
214
262
286
299
283
248
201
199
214
248
274
285
283
248
220
211
231
263
283
285
269
248
224
201
216
252
277
301
279
252
217
209
224
256
290
294
286
254
231
224
248
280
323
322
312
274
233
224
231
269
290
317
303
262
240
231
240
254
294
303
279
254
224
207
217
252
290
290
267
240
207
201
220
256
289
279
274
236
211
199
216
240
267
267
258
227
192
193
227
304
351
407
447
443
443
429
465
503
527
526
495
422
351
288
254
248
264
269
240
207
176
176
179
216
264
285
262
240
207
199
211
238
286
290
285
244
222
211
224
252
279
294
277
252
224
216
224
254
290
296
279
240
220
204
227
258
285
304
294
256
235
227
243
279
301
318
311
290
255
240
254
296
320
336
330
290
262
252
274
306
347
352
347
304
286
264
285
318
347
368
352
328
299
294
311
351
379
392
391
358
323
311
328
367
383
402
385
344
311
306
311
351
375
383
354
320
272
252
267
286
315
320
306
274
248
231
227
252
288
301
277
236
211
193
211
240
269
283
261
225
195
188
194
224
248
254
248
216
188
172
176
220
248
270
240
224
188
176
188
220
248
262
252
225
180
188
211
233
259
279
261
231
199
179
207
248
262
279
269
231
204
204
206
240
270
288
255
224
198
195
200
231
267
286
263
240
206
207
209
241
269
285
267
240
220
192
210
252
279
274
272
240
216
207
216
240
274
290
279
261
220
204
225
254
286
306
303
262
240
211
231
262
294
306
294
265
231
224
240
272
303
311
288
262
225
217
240
264
294
294
274
254
220
201
220
257
283
285
274
241
211
192
211
240
267
290
272
248
220
207
216
243
254
269
254
224
201
211
252
326
397
439
479
471
479
461
479
511
526
522
466
390
303
261
261
254
272
263
256
211
192
177
192
224
252
267
258
240
207
185
224
241
274
287
267
226
209
193
216
254
283
295
280
258
220
207
224
252
286
306
291
267
227
211
225
270
286
304
290
263
240
225
231
263
299
318
299
274
240
248
252
285
323
341
320
290
258
252
272
311
351
347
344
315
279
274
294
315
347
363
351
323
289
288
306
343
379
400
392
357
322
318
322
351
375
398
375
347
303
294
311
322
362
383
351
318
279
254
267
291
311
320
303
277
224
210
214
254
270
285
260
224
201
192
200
225
259
279
261
235
193
188
192
220
248
263
241
220
177
172
192
236
252
272
254
230
192
179
193
216
254
252
254
207
195
172
192
224
279
274
267
231
203
193
207
240
272
274
267
216
185
172
198
224
264
280
279
254
209
193
201
243
279
283
272
231
209
192
211
243
279
294
274
252
216
207
211
240
279
288
279
248
220
199
216
248
286
303
283
254
222
216
231
262
290
311
285
267
240
231
248
283
304
326
294
259
243
220
241
262
307
315
296
270
240
227
240
267
303
303
286
258
226
207
224
254
279
291
277
240
220
211
216
254
279
294
286
248
207
195
212
240
270
279
258
231
207
204
230
286
363
407
443
454
462
471
509
534
558
566
517
458
383
322
299
285
280
256
230
211
184
179
199
233
264
274
254
240
199
184
201
240
262
286
270
236
207
204
206
243
283
311
303
262
230
216
220
267
294
306
303
259
216
220
224
259
296
315
290
258
235
224
242
285
317
334
326
283
248
227
254
279
311
343
326
290
263
243
272
303
331
354
351
311
286
270
286
334
358
375
368
325
311
294
320
354
379
391
386
343
320
294
315
355
386
395
376
358
326
315
311
343
375
375
363
323
279
262
273
286
331
334
318
286
243
224
236
264
290
287
272
248
204
195
206
231
261
279
261
236
203
184
201
226
254
270
254
227
195
179
196
231
262
269
256
227
199
192
200
227
270
274
254
231
201
188
199
224
270
279
262
233
199
192
217
231
258
277
261
227
204
199
210
248
270
286
272
248
206
207
207
243
280
303
279
243
207
194
207
249
290
311
270
240
216
204
212
254
287
290
271
248
220
204
216
248
283
296
279
252
231
209
216
254
292
304
296
270
240
220
233
262
288
312
299
270
233
220
228
264
303
315
311
283
262
254
254
286
317
318
311
279
231
217
224
252
285
294
286
254
227
192
199
230
270
283
285
248
214
200
226
254
285
303
279
248
207
192
192
220
262
272
285
290
303
343
392
455
516
549
542
525
486
472
471
466
447
414
361
283
224
192
192
209
240
258
243
224
192
184
207
240
274
283
267
240
211
199
220
248
283
288
272
248
209
207
230
252
279
303
279
254
228
216
233
269
279
315
293
272
240
220
248
262
311
315
303
270
240
233
248
283
311
322
320
290
254
248
258
290
330
351
334
306
275
262
283
306
347
363
338
317
294
280
294
327
370
383
370
351
311
303
317
340
375
387
376
354
318
311
329
351
379
394
367
334
303
286
303
336
358
368
338
303
254
227
243
263
294
301
288
269
220
209
224
240
269
274
265
231
194
184
199
216
254
270
254
224
188
167
176
216
252
274
254
227
188
167
188
225
241
264
254
227
194
179
195
220
249
261
248
224
185
176
185
224
248
263
248
222
206
198
206
227
258
274
274
243
211
204
201
227
258
286
269
235
204
199
211
240
258
286
256
231
209
192
220
243
267
288
283
242
204
204
224
254
275
290
263
240
206
206
224
258
288
298
286
249
217
206
216
263
288
303
296
270
240
227
224
265
306
322
311
267
230
220
226
261
294
311
303
270
240
207
220
254
285
285
267
240
203
188
207
240
272
294
286
243
220
207
216
235
272
279
267
240
199
185
184
217
262
303
311
315
315
343
392
447
496
522
507
479
447
408
411
400
386
355
301
252
194
176
177
211
243
269
256
227
193
184
204
231
267
279
266
230
199
184
207
243
279
291
285
240
214
204
220
240
274
298
274
252
216
199
230
256
294
312
294
254
224
216
236
264
303
320
297
267
243
240
252
286
320
331
318
294
267
240
254
285
318
352
336
306
274
267
279
311
343
367
367
334
306
294
315
347
367
375
367
336
304
294
312
344
383
398
389
358
326
315
318
363
398
395
383
327
296
286
286
318
334
336
326
294
262
233
238
269
288
294
279
240
207
201
207
240
258
270
254
231
193
184
199
231
254
272
258
231
209
192
184
220
256
265
254
224
192
185
204
224
248
262
248
216
177
176
184
216
248
254
254
216
192
180
198
233
259
287
254
233
207
179
188
227
264
280
274
231
201
192
201
233
274
294
283
252
225
200
216
236
271
288
279
252
220
188
206
243
280
283
275
248
224
199
212
252
292
303
294
254
220
193
222
248
274
297
288
254
231
216
224
243
272
303
285
262
240
220
241
256
299
317
311
270
248
225
243
262
285
315
294
262
231
222
240
262
280
301
279
254
224
210
224
244
274
290
274
254
209
192
207
240
271
283
274
240
207
195
192
235
258
272
269
240
207
216
258
322
383
443
466
472
454
456
482
503
522
525
495
422
334
283
256
248
254
262
262
220
188
184
188
224
263
275
261
231
196
192
201
240
265
283
279
231
207
198
207
243
270
293
286
258
227
206
225
257
285
303
294
261
236
222
225
269
293
299
294
254
235
225
240
270
315
322
311
283
261
240
256
293
311
322
306
293
252
254
262
294
331
363
351
322
285
271
286
322
351
371
367
341
304
293
299
331
367
402
386
367
331
315
311
353
379
390
384
349
322
303
318
326
379
367
367
325
285
258
266
294
311
325
311
283
248
224
231
248
279
286
279
242
211
184
204
222
272
259
252
216
188
167
192
220
248
279
256
227
193
184
188
224
254
279
255
240
195
184
192
222
269
272
256
227
207
188
192
226
254
262
263
225
199
177
192
224
264
274
279
240
222
192
209
240
270
296
274
252
212
193
207
231
254
294
276
240
216
196
209
235
269
285
273
252
224
199
216
240
256
291
287
254
231
206
209
252
283
286
286
249
236
214
224
252
279
297
295
254
227
216
224
254
287
303
299
271
230
211
225
257
294
326
299
279
252
222
231
262
285
311
304
264
238
226
231
274
303
303
306
269
216
202
216
233
262
279
279
241
211
207
203
243
269
294
283
248
211
184
199
222
252
286
279
261
255
262
303
375
448
499
521
519
495
475
482
495
524
498
431
349
279
224
213
227
248
257
254
224
199
176
184
231
262
279
270
240
207
194
201
236
272
288
279
249
226
211
216
243
283
286
286
252
216
207
224
248
283
297
291
272
236
216
234
256
285
311
306
279
241
227
233
258
296
318
311
285
254
249
254
279
311
328
343
299
279
256
261
294
326
358
351
325
294
279
289
322
354
358
370
343
318
303
311
343
370
398
389
375
336
311
315
347
383
390
375
351
326
303
304
328
351
351
343
306
258
240
252
272
298
307
295
267
227
216
220
248
269
285
274
236
204
190
184
211
248
272
254
216
184
179
184
216
248
262
254
224
199
167
184
216
241
274
261
224
199
176
185
220
248
266
258
233
204
190
201
227
248
272
254
240
195
176
196
227
256
279
267
238
212
195
204
241
264
279
274
242
224
197
192
216
254
279
270
248
211
199
216
248
270
285
279
254
236
206
216
248
270
290
283
241
213
201
220
258
279
294
286
254
230
199
224
240
279
299
290
248
211
192
198
244
279
296
291
264
240
206
236
264
290
318
303
269
254
241
248
269
290
318
311
279
254
227
229
254
286
323
303
274
240
216
230
252
286
292
286
258
225
199
207
243
270
290
283
252
220
209
207
248
279
290
283
252
204
197
192
224
252
276
292
290
304
323
386
454
510
549
566
534
495
466
461
462
464
439
375
296
225
188
177
211
241
262
262
227
199
190
201
229
252
270
261
236
203
184
201
227
270
280
279
248
216
199
211
240
258
290
294
258
222
207
207
233
283
303
299
263
240
224
248
261
303
317
306
276
248
224
242
270
306
320
320
294
256
252
248
279
317
334
336
311
270
262
272
294
334
360
363
343
306
288
290
322
352
379
383
352
330
311
325
354
379
392
387
367
333
317
318
347
383
387
384
347
303
280
294
315
347
357
343
303
261
243
248
258
290
303
296
267
224
207
195
243
262
286
270
241
199
192
184
216
248
260
259
231
193
169
184
195
243
267
252
224
193
172
180
217
240
267
254
240
207
176
177
231
248
270
269
240
198
188
192
220
252
270
262
241
207
184
200
227
254
283
277
244
216
196
206
233
254
274
262
236
209
188
199
233
263
283
280
254
211
192
207
231
259
293
274
254
217
207
216
240
277
291
293
254
216
193
207
224
272
285
277
254
224
211
211
235
263
286
274
241
216
201
211
248
274
306
303
274
243
212
236
258
299
315
306
280
254
224
240
264
294
306
303
270
248
231
231
254
267
279
286
254
214
206
207
240
269
298
285
248
216
200
211
241
262
280
279
248
207
184
192
216
248
279
274
262
252
274
326
386
443
503
516
495
475
461
479
482
488
467
414
338
279
216
201
206
231
262
252
235
188
179
192
224
254
274
271
240
214
193
211
231
262
285
272
254
220
198
216
248
290
301
303
274
236
220
224
248
285
303
303
274
240
224
240
263
303
318
315
285
248
231
249
271
304
327
325
286
252
248
256
280
322
338
334
317
279
269
270
303
326
354
354
334
303
299
299
326
358
387
383
339
322
312
304
336
375
398
386
368
320
318
326
358
383
402
383
367
317
303
295
318
347
367
352
322
290
254
258
283
315
322
311
275
240
211
216
248
270
279
279
248
199
177
199
216
254
269
254
229
195
184
177
211
248
267
267
233
204
176
184
211
248
255
267
231
207
188
188
227
258
270
267
240
199
188
192
207
254
270
254
248
204
184
192
227
260
270
275
258
225
204
204
224
258
274
267
241
207
192
216
236
270
294
293
256
227
207
204
236
270
285
286
262
227
206
211
231
272
279
280
254
220
201
209
231
267
299
286
265
227
204
211
243
267
283
283
252
222
195
206
248
283
311
303
294
248
231
224
255
294
312
311
274
248
224
240
261
298
336
315
289
252
231
233
254
283
307
292
264
231
199
202
231
264
291
280
269
224
195
209
240
271
296
290
252
231
204
201
231
262
269
262
236
201
211
252
294
383
434
461
471
462
454
461
491
525
538
503
447
368
299
254
248
262
270
258
224
195
184
188
204
252
270
262
248
224
200
204
229
262
279
283
254
220
204
207
240
270
287
299
269
235
204
211
248
286
290
311
264
240
225
231
254
298
326
325
285
254
248
234
261
299
318
311
283
254
240
241
280
303
322
315
290
261
248
256
296
334
352
358
343
294
274
270
303
334
367
363
344
325
303
303
336
375
394
386
375
327
315
311
338
363
390
383
355
334
294
303
322
351
375
370
333
294
269
267
299
311
326
318
286
248
224
213
231
279
291
279
244
224
201
207
227
262
279
274
249
220
199
188
211
248
266
262
231
211
179
177
217
248
264
259
240
207
176
179
216
252
269
262
240
199
192
179
216
256
262
263
240
216
195
199
216
259
274
267
257
224
199
195
240
270
285
283
254
204
195
206
226
274
299
286
258
230
199
207
231
272
290
286
257
211
192
201
227
269
279
286
262
227
207
206
231
267
285
289
256
216
207
224
248
270
290
279
258
225
201
209
231
280
303
294
274
227
203
211
254
286
294
294
264
240
240
243
262
279
303
306
270
236
227
240
262
307
318
306
279
243
224
236
258
288
320
303
262
227
199
207
230
267
280
283
267
227
214
204
248
274
294
285
262
224
193
192
216
263
279
261
248
207
198
224
286
352
418
451
479
459
455
479
510
543
561
519
466
385
311
286
256
269
274
254
207
177
176
184
216
248
269
279
248
211
179
188
230
270
285
288
274
216
192
207
236
254
286
279
254
230
198
207
241
270
304
311
279
244
224
231
248
288
318
303
272
248
220
227
256
291
326
311
283
255
227
243
262
303
338
331
294
269
255
262
290
328
351
338
326
285
269
267
304
347
354
362
351
311
294
306
343
367
392
384
357
326
311
315
334
367
375
379
360
331
311
305
328
367
370
367
343
303
267
254
275
311
336
326
280
236
216
216
252
279
294
286
263
224
201
199
220
262
262
264
235
199
179
184
206
231
264
262
224
199
184
188
224
252
270
270
231
185
176
179
207
248
266
263
231
195
184
184
224
262
274
275
254
216
185
199
211
240
264
258
236
204
184
184
220
254
274
267
243
207
195
209
231
270
290
286
264
227
200
206
240
264
283
279
243
211
195
201
240
267
294
286
266
227
207
207
231
256
290
279
243
216
200
201
231
271
290
283
254
216
192
200
224
267
294
283
262
231
224
216
252
274
293
299
271
244
224
227
258
294
320
321
279
252
230
227
255
286
311
303
286
254
224
231
258
294
317
315
274
231
216
224
236
270
285
283
254
217
211
204
240
270
287
283
254
222
199
211
234
270
288
280
254
207
184
207
240
294
347
397
418
417
443
454
496
529
566
549
518
466
398
375
343
325
317
283
240
192
169
176
212
252
267
274
240
210
192
201
231
261
279
285
262
216
207
209
224
258
289
279
252
227
209
202
240
274
298
299
270
231
216
220
240
272
294
299
286
248
217
224
252
299
338
333
294
257
241
231
259
303
318
329
303
272
256
248
293
326
335
354
326
294
279
273
299
333
358
360
333
304
279
288
320
375
397
387
368
347
303
311
334
358
390
383
357
323
304
315
343
367
379
375
351
303
269
269
294
333
338
343
311
254
248
240
254
283
293
290
269
227
201
207
225
252
279
270
236
204
184
184
217
243
254
252
227
195
184
188
209
231
262
261
236
199
180
177
199
248
270
270
243
207
185
188
209
243
271
270
248
211
188
193
216
248
256
261
240
204
176
188
207
254
263
266
248
220
204
198
224
270
275
262
243
216
207
211
225
279
286
283
254
211
199
204
224
258
286
279
274
236
204
207
231
261
279
279
249
217
190
199
225
262
293
290
267
241
216
216
231
269
290
290
264
225
216
209
252
277
306
306
279
231
228
227
248
274
315
303
274
244
225
220
254
286
317
311
274
243
224
224
241
277
294
294
257
227
207
199
224
262
285
274
255
216
206
193
224
248
276
274
256
224
195
192
217
240
269
270
254
241
248
294
375
447
503
521
509
471
454
461
466
479
482
439
354
283
216
201
212
227
248
249
220
193
184
192
224
252
269
270
262
224
192
201
216
269
280
279
258
224
199
222
254
285
299
285
262
236
224
216
241
269
294
303
283
252
224
224
256
294
315
303
283
254
228
243
262
299
326
328
303
270
248
248
280
304
331
326
303
279
270
272
298
334
370
367
349
299
270
296
315
367
383
383
367
331
303
298
331
367
387
389
363
334
311
315
347
370
390
390
354
315
299
286
315
347
360
354
318
290
252
261
267
293
317
317
292
254
224
209
241
254
277
286
240
220
193
193
217
240
262
267
240
199
177
184
204
243
264
263
241
214
176
176
193
220
248
252
224
199
184
192
230
254
269
270
240
192
177
178
220
252
283
279
252
211
184
184
211
248
270
271
241
207
192
199
220
261
279
279
261
211
195
198
216
262
279
288
261
224
195
203
224
267
290
286
258
236
198
206
235
270
296
298
270
231
199
201
224
274
299
294
254
225
200
217
242
270
299
299
272
228
204
207
240
279
303
301
270
231
220
230
266
287
311
322
285
248
216
224
249
283
311
303
286
248
224
224
240
270
301
291
264
225
204
207
227
263
274
288
254
220
207
216
231
269
296
286
252
211
206
193
216
248
279
292
279
267
274
334
390
472
518
534
510
480
463
450
459
475
447
390
322
248
211
190
203
236
258
254
233
206
184
192
231
258
279
270
252
220
192
199
216
254
274
285
258
231
209
211
243
279
291
294
272
240
224
220
254
271
296
291
270
236
209
233
258
288
315
315
294
252
227
236
254
286
311
317
303
266
248
254
270
315
334
326
317
286
264
261
290
334
357
351
322
296
275
279
322
354
367
370
358
328
311
306
334
367
386
386
367
338
303
311
334
358
386
386
360
322
303
291
311
334
357
351
325
294
263
248
269
306
311
311
270
248
220
216
248
263
285
279
248
207
184
192
216
248
270
267
240
206
176
171
212
240
258
258
231
199
176
177
211
249
259
269
248
204
195
188
204
243
269
269
240
211
199
192
220
241
279
262
240
206
188
196
224
267
274
274
254
216
193
184
220
262
271
274
256
224
193
196
231
258
298
292
258
222
206
201
224
254
279
279
254
224
200
203
228
264
279
287
269
227
207
216
235
269
299
285
264
235
216
209
231
271
315
303
270
243
209
207
227
271
303
304
270
249
224
225
249
279
311
303
279
243
227
240
254
285
311
304
279
254
220
231
243
277
315
291
262
224
201
199
231
267
285
287
267
224
199
207
236
262
288
274
254
216
195
204
220
248
274
270
243
224
216
231
293
375
422
456
471
469
447
464
495
526
541
514
462
383
311
275
262
262
271
248
231
199
176
177
207
254
274
272
261
216
194
200
231
262
283
279
248
224
207
207
240
267
294
286
272
231
211
203
236
279
294
291
264
233
224
216
248
283
306
315
279
257
233
240
254
283
318
311
286
261
252
243
271
317
337
336
303
269
240
254
270
311
336
338
311
288
269
269
311
